time,bulk_energy,dt,flux,total_energy
0,318.97735357215,0,0,0
1,318.7282174963,1,0.095294051044507,318.82474668344
2.05,318.38720009882,1.05,0.10279551617075,318.52435090209
3.1525,317.88060800014,1.1025,0.17894833812388,318.08583246261
4.310125,317.08465564745,1.157625,0.31504257578892,317.41295905501
5.52563125,315.74534517145,1.21550625,0.56401115769859,316.31215801557
6.8019128125,313.34143267826,1.2762815625,1.0029275617268,314.39974638898
8.142008453125,308.78794114683,1.340095640625,1.63831165378,310.90467340739
9.48210409375,300.5599581429,1.340095640625,2.4812894975267,304.82279127232
10.822199734375,286.47577609246,1.340095640625,3.2116772335807,294.82787011808
12.162295375,264.68915806299,1.340095640625,3.7177297933462,280.1054850999
13.502391015625,235.47613550229,1.340095640625,3.7472301617709,261.59694540112
14.84248665625,202.85712334304,1.340095640625,3.6622890134218,242.73365478986
16.182582296875,173.33516654311,1.340095640625,3.4300162205342,227.71578718008
17.5226779375,151.46525669528,1.340095640625,3.2510629749512,218.25688120967
18.929778360156,136.94709832136,1.4071004226563,3.1806515250102,212.86032474436
20.407233803945,128.20189664496,1.4774554437891,3.1266458257087,209.67491544089
21.958562019924,123.00258855896,1.5513282159785,3.1506508709815,207.30642538391
23.587456646701,119.6719141529,1.6288946267774,3.124715098984,205.11680192294
25.297796004818,117.21367254344,1.7103393581163,3.1742074621345,202.8840294482
27.09365233084,115.1016889741,1.7958563260221,3.0624696552316,200.53114609116
28.979301473163,113.08427248625,1.8856491423232,2.9737192585251,198.02258963918
30.959233072602,111.04263036325,1.9799315994394,2.7630417478835,195.33279649444
32.939164672042,109.02366972697,1.9799315994394,2.5976073491482,192.58204404673
34.919096271481,107.00708545285,1.9799315994394,2.2222285414817,189.77404431373
36.899027870921,105.00404729884,1.9799315994394,2.108058849298,186.92459645925
38.87895947036,103.03899894634,1.9799315994394,1.799537777332,184.04963307333
40.858891069799,101.11590669039,1.9799315994394,1.565037757868,181.15159159973
42.838822669239,99.169496062168,1.9799315994394,1.2935604149069,178.23744053965
44.91775084865,97.165519391411,2.0789281794114,1.0202783939066,175.26940063538
46.996679028061,95.254212518678,2.0789281794114,0.69268753439569,172.42533762291
49.179553616443,93.35926074189,2.1828745883819,0.29851587537902,169.55185942839
51.471571934244,91.471007934234,2.292018317801,0.029739272681136,166.61610151021
53.763590252045,89.649165772396,2.292018317801,-0.40340539612603,163.75018502985
56.055608569847,87.908374393151,2.292018317801,-0.62633295756616,160.98996024916
58.462227803538,86.177568386559,2.4066192336911,-0.66715279825826,158.18054976675
60.989177998913,84.294560864441,2.5269501953756,-0.45389739619634,155.26579479169
63.516128194289,82.480163481467,2.5269501953756,-0.36349522093972,152.60446943181
66.043078389665,80.89127405939,2.5269501953756,-0.40073852548473,150.26795769314
68.696376094809,79.433443583765,2.6532977051444,-0.38732535409022,148.0697561839
71.349673799953,78.115749492026,2.6532977051444,-0.35520268024029,146.042631958
74.002971505098,76.879230702397,2.6532977051444,-0.28919557003887,144.13412416747
76.656269210242,75.698991052225,2.6532977051444,-0.22183119560865,142.33204638881
79.442231800644,74.562161526945,2.7859625904016,-0.25207925252869,140.57467011243
82.367492520566,73.488157474758,2.9252607199217,-0.23269918230604,138.873918561
85.439016276483,72.48404526842,3.0715237559178,-0.14659909256913,137.21471293722
88.664116220197,71.468355354598,3.2250999437137,0.18123380570592,135.56033358412
91.889216163911,70.540417317816,3.2250999437137,0.2395357642293,134.05306373131
95.27557110481,69.638655548254,3.3863549408994,0.054503594216245,132.58393022487
98.831243792755,68.744595150794,3.5556726879444,-0.12362511891035,131.19724874602
102.5647001151,67.936261707381,3.7334563223416,-0.012954941437003,129.93954959722
106.48482925355,67.213992958033,3.9201291384587,0.071213029810509,128.7726343282
110.60096484894,66.546289772353,4.1161355953816,0.090455568880007,127.64003009971
114.71710044432,65.908701409816,4.1161355953816,-0.1426535696942,126.51193773895
119.03904281947,65.195845199716,4.3219423751507,-0.3557650588143,125.38964285181
123.36098519462,64.588088950017,4.3219423751507,-0.33400051560675,124.42431386809
127.89902468853,64.02053133585,4.5380394939082,-0.32908517981135,123.50900350162
132.66396615713,63.48152553372,4.7649414686036,-0.30660605524763,122.60645190947
137.66715469916,62.949990526318,5.0031885420338,-0.2803367055853,121.69648961619
142.6703432412,62.453802469822,5.0031885420338,-0.2341889908641,120.81704873428
147.67353178323,61.976317715868,5.0031885420338,-0.24135093519361,119.96029272932
152.67672032527,61.523263922308,5.0031885420338,-0.19490488682364,119.1251463435
157.9300682944,61.059300254183,5.2533479691355,-0.18194073949,118.26347916731
163.44608366199,60.593327465361,5.5160153675923,-0.1638968275434,117.37086100938
168.96209902959,60.140985181946,5.5160153675923,-0.14642866040903,116.4731930897
174.47811439718,59.713605035513,5.5160153675923,-0.13133834703006,115.5131856109
179.99412976477,59.086665326186,5.5160153675923,-0.11915994272384,114.33619062624
185.51014513236,58.424642576838,5.5160153675923,-0.1231289575624,113.35941613993
191.02616049996,57.945951424554,5.5160153675923,-0.11354806303841,112.61308550326
196.81797663593,57.520439313072,5.7918161359719,-0.10857009083473,111.91070866882
202.8993835787,57.123342458189,6.0814069427705,-0.10346549137456,111.20843763666
209.28486086861,56.729976347578,6.385477289909,-0.098146210619209,110.49323848638
215.98961202301,56.340161393967,6.7047511544044,-0.082087398641148,109.76480124339
223.02960073514,55.941198481055,7.0399887121247,-0.10121701431458,109.02063182578
230.06958944726,55.55897799812,7.0399887121247,-0.087179780426309,108.29856410681
237.10957815938,55.183890544135,7.0399887121247,-0.084500980468419,107.59508964128
244.14956687151,54.823346375028,7.0399887121247,-0.074902935178031,106.9116852991
251.18955558363,54.468353790954,7.0399887121247,-0.083114631302632,106.24490418591
258.58154373137,54.110000156182,7.3919881477309,-0.064751058770405,105.56479106359
265.9735318791,53.757123071092,7.3919881477309,-0.067722257031061,104.90143122932
273.73511943421,53.401657397671,7.7615875551174,-0.056447953828452,104.22596091892
281.49670698933,53.052331551201,7.7615875551174,-0.057537679457854,103.56784178129
289.25829454445,52.717122851764,7.7615875551174,-0.044010590565598,102.92942340666
297.01988209957,52.387918535229,7.7615875551174,-0.041353590982357,102.30769224024
304.78146965468,52.072158393286,7.7615875551174,-0.031334292683639,101.70468776403
312.5430572098,51.761293306382,7.7615875551174,-0.030534841715328,101.11680401887
320.30464476492,51.463551802049,7.7615875551174,-0.021568989469626,100.54692939696
328.45431169779,51.155441969526,8.1496669328733,-0.015292133199332,99.963699651992
336.60397863066,50.860401521496,8.1496669328733,-0.0004349222663933,99.39878918647
345.16112891018,50.555961811908,8.557150279517,-0.0041879456741926,98.821214419094
353.7182791897,50.264383913182,8.557150279517,0.016290221576625,98.262103155999
362.27542946922,49.97912284839,8.557150279517,0.01449352860027,97.718033224359
371.26043726271,49.690964193062,8.9850077934928,0.031655861772425,97.16428611571
380.2454450562,49.409454992097,8.9850077934928,0.034776188712082,96.625597813158
389.23045284969,49.138999702737,8.9850077934928,0.067416340362592,96.102990971637
398.66471103286,48.860835728897,9.4342581831675,0.062572928465234,95.568436759005
408.09896921603,48.59299886455,9.4342581831675,0.11431177660005,95.048846392781
417.5332273992,48.331873043688,9.4342581831675,0.10775866026403,94.542297121816
427.43919849152,48.06719458273,9.9059710923258,0.13784915035675,94.024046103741
437.34516958385,47.808574366979,9.9059710923258,0.15938213123771,93.516858593699
447.25114067617,47.559510531521,9.9059710923258,0.1942349203013,93.020764516136
457.1571117685,47.316158119748,9.9059710923258,0.21311128818118,92.531465411019
467.06308286083,47.083170617779,9.9059710923258,0.24066892633699,92.045405510004
476.96905395315,46.835970387594,9.9059710923258,0.10723559613552,91.518092193734
486.37972649086,46.533972740989,9.4106725377095,0.39011849929366,90.949183510381
495.31986540169,46.230460788273,8.9401389108241,0.099787457421515,90.339770832579
504.26000431251,45.906969383309,8.9401389108241,0.017791502770544,89.800163674402
513.20014322333,45.664834951479,8.9401389108241,0.0469987742893,89.357982488118
522.14028213416,45.453808314881,8.9401389108241,0.11290938849792,88.947330066783
531.08042104498,45.247160357349,8.9401389108241,0.32025358147107,88.512000194523
540.02055995581,44.959280140859,8.9401389108241,0.20545871277405,88.011979237539
548.51369192109,44.70649713164,8.4931319652829,0.084484584561207,87.557979302645
557.00682388637,44.473519677229,8.4931319652829,0.0722163015278,87.129108084524
565.49995585165,44.256626769043,8.4931319652829,0.058024185482491,86.721483188776
573.99308781694,44.048337898482,8.4931319652829,0.10665278050131,86.330139326187
582.91087638048,43.840613996158,8.917788563547,0.1065309978615,85.93537681627
591.82866494403,43.639019424316,8.917788563547,0.14340047287182,85.553095021476
601.19234293576,43.43664379702,9.3636779917244,0.16308137731725,85.164898035051
610.55602092748,43.239089485311,9.3636779917244,0.1994159690427,84.786524316074
620.38788281879,43.038797142541,9.8318618913106,0.21635174108949,84.399201640118
630.2197447101,42.84214375774,9.8318618913106,0.28276700225538,84.019223933643
640.05160660141,42.650737374636,9.8318618913106,0.28977280361303,83.646081314514
649.88346849272,42.461581855063,9.8318618913106,0.34639840731241,83.277580000553
659.71533038403,42.276132132601,9.8318618913106,0.37012873918962,82.913249639065
669.54719227534,42.092227080658,9.8318618913106,0.41904876603189,82.55109327972
679.37905416665,41.910900655236,9.8318618913106,0.46502446793419,82.19009267288
689.21091605796,41.729949528043,9.8318618913106,0.52319809411772,81.826841484907
699.04277794928,41.550955793729,9.8318618913106,0.59451901705667,81.457938634006
708.87463984059,41.372556275635,9.8318618913106,0.66459562054221,81.070113471378
718.7065017319,41.179403549987,9.8318618913106,0.38822907919231,80.528142134302
728.04677052864,40.815939182287,9.3402687967451,0.11536583266896,80.001779260878
736.92002588555,40.609057992512,8.8732553569078,0.086995197598061,79.689579726768
745.79328124246,40.456349804165,8.8732553569078,0.082767082099,79.441260260591
755.11019936721,40.320786739602,9.3169181247532,0.083648725006387,79.203090900867
764.8929633982,40.188635828315,9.7827640309909,0.071637938889347,78.962036161922
775.16486563074,40.058887603795,10.27190223254,0.076794087870879,78.7170963091
785.95036297491,39.927352689523,10.785497344167,0.058735690552496,78.467347271087
797.27513518628,39.795405658147,11.324772211376,0.05214643257591,78.213836405014
808.59990739766,39.667364388812,11.324772211376,0.033862154557727,77.968204936145
820.4909182196,39.538050896544,11.891010821945,0.033090429722877,77.718829700299
832.38192904155,39.412327806119,11.891010821945,0.013537392367495,77.476783698845
844.86749040459,39.285234240632,12.485561363042,0.018393653086919,77.230510778977
857.97732983579,39.155045194716,13.109839431194,-0.00095940034489628,76.978625032519
871.08716926698,39.029194097822,13.109839431194,-0.0028069411260917,76.733363661976
884.19700869817,38.906095460646,13.109839431194,-0.013611545921517,76.493156829754
897.30684812937,38.785987545415,13.109839431194,-0.018008299653928,76.257586397696
910.41668756056,38.667630413071,13.109839431194,-0.025913346572433,76.025463539216
924.18201896331,38.545628156311,13.765331402754,-0.032192384157074,75.785035272403
937.94735036607,38.424959675202,13.765331402754,-0.038447680196927,75.546931061981
952.40094833896,38.300007821385,14.453597972891,-0.049731909367722,75.299187501927
966.85454631185,38.175853834317,14.453597972891,-0.051289382878239,75.05264214463
981.30814428474,38.05269978551,14.453597972891,-0.062927228759954,74.806800815517
995.76174225763,37.929835709334,14.453597972891,-0.062013668848427,74.560913663737
1010.2153402305,37.80719651508,14.453597972891,-0.071569421827178,74.314382012707
1024.6689382034,37.684159341906,14.453597972891,-0.075478950048792,74.066079294769
1039.1225361763,37.560745880587,14.453597972891,-0.081414958708075,73.815282623901
1053.5761341492,37.436106863357,14.453597972891,-0.086079265299023,73.560611939323
1068.0297321221,37.310084817635,14.453597972891,-0.089868423697,73.300522662395
1082.483330095,37.181757491368,14.453597972891,-0.096176321769175,73.03270804425
1096.9369280679,37.050506168589,14.453597972891,-0.10050099070636,72.753585912572
1111.3905260408,36.915481640309,14.453597972891,-0.10774985780607,72.457484325885
1125.8441240137,36.776007179268,14.453597972891,-0.1097344732735,72.131784636683
1140.2977219865,36.636455106003,14.453597972891,-0.12128059595286,71.73432873164
1153.3420941571,36.327714190893,13.044372170534,-0.12192667445753,70.928186107878
1165.7342477191,35.888547014258,12.392153562008,-0.12220198030558,70.404764718355
1177.506793603,35.702547919365,11.772545883907,-0.12976985968583,70.1755590691
1189.8679667811,35.582824041153,12.361173178103,-0.13508162844195,70.017200121943
1202.8471986181,35.492000731976,12.979231837008,-0.13924348155241,69.880092586096
1216.475392047,35.412636625775,13.628193428858,-0.14177659461436,69.745422765949
1230.7849951473,35.337553717791,14.309603100301,-0.15022171582963,69.606926648222
1245.8100784026,35.262432558335,15.025083255316,-0.15286886475563,69.462864202495
1261.5864158207,35.185668916887,15.776337418082,-0.162472853324,69.312571688271
1277.3627532387,35.109812888592,15.776337418082,-0.16348349232598,69.163427802089
1293.9279075277,35.030749882433,16.565154288986,-0.16881086406034,69.007534073943
1310.4930618167,34.95218262891,16.565154288986,-0.17609057416524,68.852669850984
1327.8864738202,34.869968559798,17.393412003435,-0.18082017969649,68.690653402911
1345.2798858236,34.788264039705,17.393412003435,-0.18832040966623,68.529428522765
1362.673297827,34.706945204649,17.393412003435,-0.19380168083142,68.368828842428
1380.0667098305,34.625979353032,17.393412003435,-0.20086265449368,68.208684447433
1397.4601218339,34.545195914918,17.393412003435,-0.20768407523085,68.049018601799
1414.8535338373,34.464592706495,17.393412003435,-0.21795386639319,67.889370378137
1432.2469458408,34.384197893822,17.393412003435,-0.23063358830701,67.730151730671
1449.6403578442,34.303738836301,17.393412003435,-0.23608662777576,67.570519781039
1467.0337698476,34.223299884303,17.393412003435,-0.2540757908549,67.410836653928
1484.4271818511,34.142666648352,17.393412003435,-0.25641064840439,67.250530948818
1501.8205938545,34.061914596247,17.393412003435,-0.27476627938918,67.089685538588
1519.2140058579,33.980712079027,17.393412003435,-0.28424237957997,66.927745242487
1536.6074178614,33.899018925663,17.393412003435,-0.31486580233454,66.764470928417
1554.0008298648,33.816600681361,17.393412003435,-0.3202530396379,66.599222417072
1571.3942418682,33.733390190257,17.393412003435,-0.3480370335791,66.431617855599
1588.7876538717,33.648849331223,17.393412003435,-0.38125315521837,66.260071532195
1606.1810658751,33.562838755622,17.393412003435,-0.43112965106452,66.083465562518
1623.5744778786,33.47436103156,17.393412003435,-0.50461159538304,65.897042579679
1640.967889882,33.383913875181,17.393412003435,-0.61348162085869,65.687275973486
1655.1349326676,33.246909785801,14.167042785623,-0.15125140199573,65.374841494641
1668.593623314,33.100513548925,13.458690646342,-0.023399228723641,65.176969876576
1682.0523139603,33.024818718882,13.458690646342,-0.011789573976103,65.058123409409
1696.183939139,32.961755055218,14.131625178659,-0.0026457512163326,64.94600984099
1711.0221455765,32.901026954262,14.838206437592,0.0036834123077918,64.830082097014
1726.602262336,32.838810600753,15.580116759472,0.0096172521188672,64.708410999833
1742.9613849335,32.774242835481,16.359122597445,0.019401259496308,64.580468621209
1760.1384636608,32.706430416983,17.177078727317,0.020341225676294,64.44559847675
1777.3155423881,32.638588539082,17.177078727317,0.028427596483608,64.310230105933
1794.4926211154,32.570361673123,17.177078727317,0.031160611408224,64.173869551039
1811.6696998427,32.50194718834,17.177078727317,0.042907446685455,64.036918266975
1828.84677857,32.43295729649,17.177078727317,0.048533800444301,63.89851984624
1846.0238572974,32.363581908534,17.177078727317,0.060471022773152,63.758964158309
1863.2009360247,32.293480111632,17.177078727317,0.059254923785968,63.617719505921
1880.378014752,32.222672038176,17.177078727317,0.079219438365871,63.47451733765
1897.5550934793,32.150905282959,17.177078727317,0.088397591036223,63.328698467937
1914.7321722066,32.078015320232,17.177078727317,0.11498921223874,63.17987949453
1931.909250934,32.003709657262,17.177078727317,0.12468351363652,63.027099763301
1949.0863296613,31.927735555306,17.177078727317,0.15009221746767,62.869132725332
1966.2634083886,31.84956698941,17.177078727317,0.18908626459799,62.703964331956
1983.4404871159,31.768574420139,17.177078727317,0.23275272699807,62.52799612671
2000.6175658432,31.684121248807,17.177078727317,0.30821192937528,62.332640066555
2017.7946445705,31.601301764328,17.177078727317,0.39982859542576,62.078907178559
2031.7854825507,31.380247508378,13.990837980142,-0.12107285417062,61.628083741687
2045.0767786318,31.188666275956,13.291296081135,-0.22167237417367,61.400895732628
2058.368074713,31.101251042185,13.291296081135,-0.23370500020816,61.287547734619
2072.3239355981,31.038510205627,13.955860885192,-0.23447579524034,61.192083986599
2086.9775895276,30.984780805714,14.653653929451,-0.23441539544447,61.098129389251
2102.3639261535,30.932815328355,15.386336625924,-0.23235319623178,61.000911682332
2118.5195796107,30.880512616288,16.15565345722,-0.23179852559206,60.899459311523
2135.4830157408,30.826234738473,16.963436130081,-0.22986678233738,60.792548352502
2153.2946236774,30.769836902876,17.811607936585,-0.23121641308298,60.680519318669
2171.9968120108,30.710499866497,18.702188333414,-0.23589301215471,60.562281984889
2190.6990003442,30.651231488796,18.702188333414,-0.23803294545903,60.443810475893
2209.4011886776,30.591607950086,18.702188333414,-0.23895831200154,60.324398597047
2228.1033770111,30.531808822882,18.702188333414,-0.24334146958361,60.204404331193
2246.8055653445,30.471397184303,18.702188333414,-0.24779569419935,60.083248020733
2265.5077536779,30.41060595225,18.702188333414,-0.24972050386058,59.96108139423
2284.2099420113,30.34926995726,18.702188333414,-0.26116766946043,59.837480531369
2302.9121303447,30.287292131144,18.702188333414,-0.25576404512551,59.712460291031
2321.6143186781,30.224478861652,18.702188333414,-0.27250067611136,59.585461717078
2340.3165070116,30.160971510477,18.702188333414,-0.28588654247716,59.456621372821
2359.018695345,30.09631360878,18.702188333414,-0.28538700131489,59.324976789592
2377.7208836784,30.030587898876,18.702188333414,-0.32649082987029,59.190422704103
2396.4230720118,29.963246794506,18.702188333414,-0.31794700933257,59.052082629805
2415.1252603452,29.894320062548,18.702188333414,-0.35197261014035,58.909038548074
2433.8274486786,29.823012523825,18.702188333414,-0.37843352203297,58.759476241545
2452.529637012,29.749136725737,18.702188333414,-0.44558842492997,58.600539892972
2471.2318253455,29.671905842149,18.702188333414,-0.52234059998124,58.42370194356
2484.9796523263,29.609718740857,13.747826980834,-0.28375021834638,58.191095891526
2498.0400879581,29.441486028867,13.060435631793,0.030815950403661,57.957787414835
2510.4475018083,29.358861176833,12.407413850203,0.0575714245709,57.833973937241
2522.8549156585,29.302271421209,12.407413850203,0.070739027720458,57.739501897152
