time,bulk_energy,dt,flux,total_energy
0,318.97749130809,0,0,0
1,318.72837118625,1,0.14370357161046,318.82490280492
2.05,318.3945272895,1.05,0.10354219078404,318.53118529008
3.1525,317.8909635002,1.1025,0.17313143516697,318.09472730177
4.310125,317.10523871954,1.157625,0.30209163536285,317.4306023748
5.52563125,315.78018949873,1.21550625,0.55824646462532,316.34092613235
6.8019128125,313.41761967669,1.2762815625,0.953975989842,314.46142359196
8.142008453125,308.9342362019,1.340095640625,1.6342947738817,311.01571275634
9.48210409375,300.90888341059,1.340095640625,2.4324722950396,305.08071407783
10.822199734375,287.14004265926,1.340095640625,3.222275215022,295.28372536357
12.162295375,265.91671838551,1.340095640625,3.6981376522095,280.9090200828
13.502391015625,237.23329676428,1.340095640625,3.8164936893374,262.6463695381
14.84248665625,204.83542040407,1.340095640625,3.721116298355,243.79690727976
16.182582296875,175.04381698606,1.340095640625,3.3832886454937,228.52014181637
17.5226779375,152.67632583437,1.340095640625,3.2736912020721,218.77381016775
18.929778360156,137.71134878317,1.4071004226563,3.1940939877376,213.19926610989
20.407233803945,128.68417620926,1.4774554437891,3.2184895752025,209.94390386345
21.958562019924,123.33479160582,1.5513282159785,3.1432336898627,207.55544849718
23.587456646701,119.94091525703,1.6288946267774,3.1923427210665,205.36945992796
25.297796004818,117.4588235925,1.7103393581163,3.1519810038029,203.14532080127
27.09365233084,115.33979066856,1.7958563260221,3.1971664117779,200.80393372705
28.979301473163,113.31963303596,1.8856491423232,2.996495556301,198.30835713958
30.959233072602,111.27378943573,1.9799315994394,2.9662432291542,195.63133970684
33.038161252014,109.16068433744,2.0789281794114,2.6276366286398,192.76032620285
35.117089431425,107.05075295535,2.0789281794114,2.4751056986595,189.82420543783
37.299964019807,104.86285839757,2.1828745883819,2.1054460507907,186.6981880597
39.482838608189,102.69293222412,2.1828745883819,1.7521544525109,183.52423937625
41.665713196571,100.55377640023,2.1828745883819,1.463505450614,180.3133840393
43.848587784953,98.369657435381,2.1828745883819,1.2628447510249,177.08781078967
46.031462373335,96.270840835776,2.1828745883819,0.81977305471897,173.99218521308
48.323480691136,94.206792916821,2.292018317801,0.57751536361941,170.8990569414
50.615499008937,92.293165829512,2.292018317801,0.18325065108007,167.93730060418
52.907517326738,90.466815284652,2.292018317801,-0.18525959907151,165.04930790034
55.314136560429,88.638119357307,2.4066192336911,-0.53334392016039,162.12417236332
57.72075579412,86.894089118884,2.4066192336911,-0.57728337247221,159.29910595063
60.127375027811,85.179321009501,2.4066192336911,-0.45044602561907,156.51262367291
62.533994261502,83.368840645575,2.4066192336911,-0.36244580868197,153.80037816192
64.940613495193,81.724349337908,2.4066192336911,-0.39681770159395,151.38831362933
67.467563690569,80.194714181944,2.5269501953756,-0.42710687214513,149.13312445651
70.120861395713,78.775835679943,2.6532977051444,-0.37474101172995,146.98494417583
72.906823986115,77.390005207688,2.7859625904016,-0.34223922656072,144.87267574917
75.692786576517,76.109465339231,2.7859625904016,-0.23955128824761,142.89653232124
78.618047296438,74.858452019228,2.9252607199217,-0.19579935757019,140.95537341106
81.54330801636,73.732606780998,2.9252607199217,-0.11870892032591,139.1563619963
84.614831772278,72.625661843247,3.0715237559178,0.11413837988641,137.37194104231
87.839931715992,71.536765250833,3.2250999437137,0.30134509688545,135.65342759986
91.226286656891,70.52864158371,3.3863549408994,0.28945879389711,134.04561157086
94.781959344835,69.593433125654,3.5556726879444,0.15340287497707,132.4975198224
98.515415667177,68.628023366624,3.7334563223416,-0.041682555235102,130.98748951289
102.43554480564,67.758481839261,3.9201291384587,0.0051151419460554,129.62648693684
106.55168040102,66.973893835368,4.1161355953816,0.076427356584164,128.37122615923
110.87362277617,66.266074554055,4.3219423751507,0.14671275850739,127.17336196444
115.19556515132,65.597735593349,4.3219423751507,-0.10419584504118,125.98883465942
119.73360464523,64.848355637173,4.5380394939082,-0.27393669217673,124.80099503179
124.27164413913,64.208570370589,4.5380394939082,-0.32621162233565,123.78582211069
129.03658560774,63.620865284221,4.7649414686036,-0.26026545921854,122.83091271688
134.03977414977,63.061796507065,5.0031885420338,-0.26482713658861,121.89250189201
139.29312211891,62.5183272305,5.2533479691355,-0.19899969808544,120.95226328043
144.8091374865,61.984186896233,5.5160153675923,-0.16774728058498,120.00267914502
150.60095362247,61.453226273215,5.7918161359719,-0.15200765771438,119.04003878367
156.68236056524,60.923084758155,6.0814069427705,-0.12040318765707,118.05960975338
163.06783785515,60.392524172791,6.385477289909,-0.12818182882085,117.05477816227
169.77258900956,59.862282517609,6.7047511544044,-0.11222895440241,116.00475450248
176.47734016396,59.361772079826,6.7047511544044,-0.091515910844227,114.84889963091
183.18209131836,58.562918461397,6.7047511544044,-0.10941647458128,113.50248081083
189.88684247277,57.897250855391,6.7047511544044,-0.05950566944273,112.50746095209
196.59159362717,57.410531020928,6.7047511544044,-0.069150943165201,111.71745374216
203.29634478158,56.985151110623,6.7047511544044,-0.06223812000409,110.98542617464
210.00109593598,56.599740489795,6.7047511544044,-0.079779436501783,110.28339824249
217.04108464811,56.214533181691,7.0399887121247,-0.05625297587516,109.57095564684
224.43307279584,55.830243420719,7.3919881477309,-0.069650953450027,108.84850627723
232.19466035096,55.439247751467,7.7615875551174,-0.045350016950049,108.11506536875
239.95624790607,55.063788413653,7.7615875551174,-0.069853006158491,107.40578044548
247.71783546119,54.699161496232,7.7615875551174,-0.041914584330309,106.71830341331
255.47942301631,54.347911570842,7.7615875551174,-0.061723205466303,106.0520220244
263.62908994918,53.987987183687,8.1496669328733,-0.037626465885972,105.37212699739
271.77875688205,53.641973453478,8.1496669328733,-0.052294423533838,104.7143090302
280.33590716157,53.286551656831,8.557150279517,-0.033582570082,104.04201528396
288.89305744109,52.945405415574,8.557150279517,-0.030330403973334,103.39153484725
297.87806523458,52.595500533443,8.9850077934928,-0.025683610782353,102.72718668457
307.31232341775,52.242280955473,9.4342581831675,-0.018925755663394,102.05283379308
317.21829451007,51.881204105064,9.9059710923258,-0.0084927531806183,101.36504624706
327.1242656024,51.534833555587,9.9059710923258,0.001748029095836,100.701032545
337.03023669473,51.197547101872,9.9059710923258,0.0052676629146567,100.05508360255
347.43150634167,50.856312707415,10.401269646942,0.0095210136747846,99.399071568593
357.83277598861,50.524684185864,10.401269646942,0.026466118271069,98.761361726315
368.23404563555,50.204518517541,10.401269646942,0.028462427970387,98.142879490561
379.15537876484,49.87724977786,10.921333129289,0.051955438580622,97.510886619122
390.07671189413,49.56157626788,10.921333129289,0.062189494896577,96.898162434805
401.54411167988,49.238505796428,11.467399785754,0.0646594922369,96.270405838664
413.01151146564,48.926950019621,11.467399785754,0.091910162055879,95.660879667023
424.47891125139,48.624588216074,11.467399785754,0.09423698149492,95.065429647353
435.94631103715,48.332402770223,11.467399785754,0.079206524552685,94.48394015644
447.4137108229,48.052060399989,11.467399785754,0.076894753945779,93.910732017349
458.88111060865,47.74532411889,11.467399785754,-0.099273384956092,93.284430421161
469.77514040512,47.389586541244,10.894029796466,0.17353649235468,92.639966067271
480.66917020159,47.069263133957,10.894029796466,0.31226626381999,92.035455139582
491.56319999805,46.767422045821,10.894029796466,0.42428358502489,91.454985655644
502.45722979452,46.483501572499,10.894029796466,0.48157503788394,90.895462323963
513.35125959098,46.210720296926,10.894029796466,0.63799028337402,90.344800327715
524.24528938745,45.953970062309,10.894029796466,0.79858312947173,89.79204633516
535.13931918392,45.631017216087,10.894029796466,0.58347024042715,89.073702564195
545.48864749056,45.204547459821,10.349328306643,0.22997206662461,88.383324900885
555.8379757972,44.876158641823,10.349328306643,0.15180969056294,87.809020165069
566.18730410384,44.588475956767,10.349328306643,0.14733215592437,87.287332892903
576.53663241049,44.325167580194,10.349328306643,0.16327712591919,86.796510519353
586.88596071713,44.074966885279,10.349328306643,0.18322238445254,86.325600245812
597.23528902377,43.837133459589,10.349328306643,0.2149772785064,85.871447128121
607.58461733041,43.607282769959,10.349328306643,0.23964520868169,85.430206712299
617.93394563706,43.385301628705,10.349328306643,0.28428648140401,85.000795190305
628.2832739437,43.167790319749,10.349328306643,0.30742562767922,84.579469743747
638.63260225034,42.955657563774,10.349328306643,0.34288739682302,84.165968231931
648.98193055699,42.746491840798,10.349328306643,0.3868804675158,83.757343832849
659.33125886363,42.540934174114,10.349328306643,0.41062900717711,83.353080518585
669.68058717027,42.337103773388,10.349328306643,0.48167568920303,82.950535084514
680.02991547691,42.135930082983,10.349328306643,0.51543216768681,82.549281734592
690.37924378356,41.934889796127,10.349328306643,0.58378889883753,82.143316693877
700.7285720902,41.736211472422,10.349328306643,0.63503073865329,81.727972962576
711.07790039684,41.541027705088,10.349328306643,0.72550677228089,81.268326430918
721.42722870348,41.21062986336,10.349328306643,0.20010410811056,80.616626896372
731.77655701013,40.897046129622,10.349328306643,0.12858105580131,80.152350824619
742.12588531677,40.701156042937,10.349328306643,0.1050083514551,79.832344534189
752.47521362341,40.536051673746,10.349328306643,0.092937361808041,79.545698687171
763.34200834539,40.380473250967,10.866794721975,0.091177744496078,79.259884239192
774.75214280346,40.225218746351,11.410134458074,0.082838558416899,78.967832402917
786.73278398444,40.070949640057,11.980641180977,0.07677751717752,78.672799464117
798.71342516542,39.921947886851,11.980641180977,0.065725538299744,78.386626641103
810.69406634639,39.779214877427,11.980641180977,0.061315416236053,78.111184188718
822.67470752737,39.6404977267,11.980641180977,0.045936425805294,77.843662447982
834.65534870835,39.507025137684,11.980641180977,0.045139993266945,77.585231067584
847.23502194837,39.370297600308,12.579673240026,0.030030461860705,77.320723218644
859.8146951884,39.238104514516,12.579673240026,0.027264702444996,77.064198897412
873.02335209043,39.102317145434,13.208656902027,0.010391114832015,76.800161008288
886.89244183756,38.963771104914,13.869089747129,0.012096350882714,76.530118049634
900.76153158469,38.827823881349,13.869089747129,-0.0035715583442439,76.264515040088
915.32407581917,38.68838501742,14.562544234485,-0.0077827056549782,75.991307011525
929.88662005366,38.551122920718,14.562544234485,-0.019619584451348,75.720907972874
944.44916428814,38.416431155849,14.562544234485,-0.025458288296859,75.454743801332
959.01170852263,38.282620732947,14.562544234485,-0.035519114261767,75.19000342972
974.30237996884,38.143855719999,15.29067144621,-0.039633390297889,74.914532771033
989.59305141505,38.0056431465,15.29067144621,-0.052006871349696,74.639282244852
1005.6482564336,37.861386330089,16.05520501852,-0.051591952121204,74.351091560135
1021.7034614521,37.716998862715,16.05520501852,-0.059883006560885,74.061472836478
1037.7586664706,37.572794834962,16.05520501852,-0.059622589522066,73.770019125585
1053.8138714891,37.427642808483,16.05520501852,-0.070014103420726,73.474553870694
1069.8690765076,37.281074562307,16.05520501852,-0.076849494261367,73.17426710043
1085.9242815262,37.131736032019,16.05520501852,-0.081050819006891,72.863871643239
1101.9794865447,36.979551095395,16.05520501852,-0.094317175213957,72.54172730689
1118.0346915632,36.822515255409,16.05520501852,-0.092078046955755,72.196411765162
1134.0898965817,36.660637666998,16.05520501852,-0.10725942643948,71.809756573797
1150.1451016002,36.467223054207,16.05520501852,-0.10667801172151,70.984104646903
1165.3975463678,35.857749215786,15.252444767594,-0.12626862149977,70.244603008171
1179.8873688971,35.617827979822,14.489822529214,-0.12598480246989,69.948140766322
1194.3771914263,35.480751399543,14.489822529214,-0.13373801503568,69.760400253162
1209.5915050819,35.376097718437,15.214313655675,-0.13982323948438,69.595419409708
1225.5665344204,35.282690411581,15.975029338459,-0.14528641185396,69.430265032517
1242.3403152258,35.192512710034,16.773780805382,-0.15153011003689,69.260219540134
1259.9527850714,35.101563469559,17.612469845651,-0.15239769920567,69.083137654487
1277.5652549171,35.012503405122,17.612469845651,-0.16250385013296,68.908556080051
1295.1777247627,34.924642371898,17.612469845651,-0.16753547029515,68.735299430509
1312.7901946084,34.837396141915,17.612469845651,-0.17845907593742,68.563938182382
1330.402664454,34.751075288787,17.612469845651,-0.1841148626138,68.393603773349
1348.0151342997,34.665280994553,17.612469845651,-0.18948201442757,68.22496061673
1365.6276041453,34.580169216899,17.612469845651,-0.20094442667748,68.057324351192
1383.240073991,34.49565130066,17.612469845651,-0.19991341230483,67.891072246493
1400.8525438366,34.411584431791,17.612469845651,-0.2164102468625,67.725475347849
1418.4650136823,34.328017416037,17.612469845651,-0.21918919167244,67.560741315689
1436.0774835279,34.245016783787,17.612469845651,-0.23222290598624,67.396544376057
1453.6899533736,34.162184150427,17.612469845651,-0.24106827405133,67.233113011995
1471.3024232192,34.079734735656,17.612469845651,-0.25849433391177,67.069725931544
1488.9148930649,33.99742151931,17.612469845651,-0.26451174459006,66.906659922382
1506.5273629105,33.915138766117,17.612469845651,-0.29318277589174,66.74322355949
1524.1398327562,33.832868178074,17.612469845651,-0.28430639933206,66.579862985069
1541.7523026018,33.750435152617,17.612469845651,-0.32389073850427,66.415130420365
1559.3647724475,33.66774047465,17.612469845651,-0.3291789590712,66.249740170985
1576.9772422931,33.584277484092,17.612469845651,-0.38764146358552,66.082065437619
1594.5897121388,33.499989575861,17.612469845651,-0.3880615277465,65.911240982835
1612.2021819845,33.414375852367,17.612469845651,-0.44043718397292,65.735921856068
1629.8146518301,33.326916524856,17.612469845651,-0.50427605435519,65.55204061116
1647.4271216758,33.23706282338,17.612469845651,-0.62470194593744,65.347436467925
1665.0395915214,33.075091383223,17.612469845651,-0.13464991404118,64.994363193491
1681.7714378748,32.924948158905,16.731846353368,-0.041398665383932,64.786201438375
1698.5032842281,32.844252758474,16.731846353368,-0.020844530687393,64.652621965826
1716.0717228992,32.772858960251,17.568438671037,-0.018070489180722,64.520244453471
1734.5185835038,32.702211383099,18.446860604588,-0.0064533195609295,64.38248239908
1752.9654441084,32.633130141916,18.446860604588,-0.0053426272989953,64.244392050761
1771.4123047129,32.564386627394,18.446860604588,0.0086736093120522,64.106426785928
1789.8591653175,32.495911772292,18.446860604588,0.008333849336462,63.968026121577
1808.3060259221,32.427127088828,18.446860604588,0.0090212361447218,63.829137777404
1826.7528865267,32.358392258824,18.446860604588,0.015853765487745,63.689486729101
1845.1997471313,32.289278317449,18.446860604588,0.031807893740708,63.548466774332
1863.6466077359,32.220002070576,18.446860604588,0.031673935755403,63.406177807946
1882.0934683405,32.15004740068,18.446860604588,0.063643907577798,63.261337538351
1900.5403289451,32.079786641941,18.446860604588,0.053841798153471,63.114502909959
1918.9871895496,32.008310741374,18.446860604588,0.079318612246362,62.963853141298
1937.4340501542,31.93614634624,18.446860604588,0.089747611688198,62.808879770255
1955.8809107588,31.862454755018,18.446860604588,0.10755253496756,62.647054092414
1974.3277713634,31.787861442027,18.446860604588,0.1415101608251,62.47536321163
1992.774631968,31.712111280998,18.446860604588,0.18082027074555,62.286844059069
2009.4229236636,31.649586898261,16.648291695641,0.18827148019064,62.079215874674
2025.2388007745,31.459552290849,15.815877110859,-0.27007289717884,61.515826304291
2040.2638840298,31.084836854759,15.025083255316,-0.25554356331296,61.046045173507
2055.2889672851,30.905638294831,15.025083255316,-0.2323932870491,60.797224922917
2070.3140505405,30.784691282429,15.025083255316,-0.22226743880902,60.604991141365
2085.3391337958,30.68722786013,15.025083255316,-0.21264725555619,60.436319229852
2100.3642170511,30.601470543968,15.025083255316,-0.20744690102495,60.279902694134
2115.3893003064,30.523094071471,15.025083255316,-0.21331231101899,60.134242324224
2130.4143835617,30.449567775811,15.025083255316,-0.20967983657439,59.994955886073
2145.439466817,30.379927612758,15.025083255316,-0.21115355778563,59.862297143004
2160.4645500723,30.313161433454,15.025083255316,-0.20920385871301,59.733744720225
2176.2408874904,30.245718394006,15.776337418082,-0.20380546469211,59.604183987717
2192.0172249085,30.18048104123,15.776337418082,-0.20675595742412,59.478234005265
2208.5823791975,30.114360167483,16.565154288986,-0.19869413597294,59.350494843276
2225.9757912009,30.047221319771,17.393412003435,-0.19474619133878,59.22024802497
2244.2388738045,29.978934610371,18.263082603607,-0.18977623301519,59.088062955286
2262.5019564081,29.913056674114,18.263082603607,-0.17922221765955,58.959235054517
2281.6781931419,29.845816525242,19.176236733787,-0.17433453972431,58.828072014014
2300.8544298757,29.780556210325,19.176236733787,-0.16712483922905,58.699708096252
2320.0306666095,29.716687006582,19.176236733787,-0.15759581059578,58.574243367601
2339.2069033433,29.654340965226,19.176236733787,-0.15590436910231,58.450618273811
2358.3831400771,29.592604362547,19.176236733787,-0.14267376523691,58.32896610383
2377.5593768109,29.532002840363,19.176236733787,-0.13954946189492,58.207909094299
2396.7356135447,29.471784592398,19.176236733787,-0.1336478966143,58.08809728273
2415.9118502784,29.41206760644,19.176236733787,-0.1241785249307,57.96812531519
2435.0880870122,29.352229240056,19.176236733787,-0.11999323009495,57.848435875301
2454.264323746,29.292477596835,19.176236733787,-0.10586378663999,57.727695264071
2473.4405604798,29.232473883483,19.176236733787,-0.090487585332919,57.606439425462
2492.6167972136,29.171944828919,19.176236733787,-0.091114537792082,57.483269409232
2511.7930339474,29.110605514561,19.176236733787,-0.063885200539217,57.358474903537
2530.9692706812,29.048530836438,19.176236733787,-0.065751191534796,57.230456135643
2550.145507415,28.985116422343,19.176236733787,-0.025303160980008,57.0994580316
2569.3217441487,28.919986947947,19.176236733787,-0.019747579360203,56.962844501562
2588.4979808825,28.853086374274,19.176236733787,0.014271943749878,56.820083767332
2607.6742176163,28.783264410057,19.176236733787,0.057505447317866,56.666804867921
2626.8504543501,28.710492670168,19.176236733787,0.12879922171752,56.496077555459
2646.0266910839,28.637965870945,19.176236733787,0.22662964929216,56.27785405913
2665.2029278177,28.407992007257,19.176236733787,-0.30111623010207,55.798546391681
2683.4203527148,28.21692018472,18.217424897098,-0.37441979201049,55.567623395251
2701.6377776119,28.129682490479,18.217424897098,-0.39005592308733,55.452182403337
2719.855202509,28.071892840936,18.217424897098,-0.3874988124719,55.365591597828
2738.9834986509,28.023806094932,19.128296141953,-0.39788618701617,55.285417874043
2759.0682096,27.979027212936,20.084710949051,-0.40013361746663,55.203592694908
2780.1571560965,27.934776136988,21.088946496503,-0.4044153910611,55.119307029728
2801.246102593,27.891797282679,21.088946496503,-0.41460781886154,55.034314019596
2823.3894964143,27.846844972005,22.143393821328,-0.41669807668948,54.94614178848
2845.5328902356,27.802346088314,22.143393821328,-0.42894346780603,54.856648700306
2867.676284057,27.757684249506,22.143393821328,-0.42727545368529,54.768148762882
