time,bulk_energy,dt,flux,mem_usage,total_energy,walltime
0,8505.4696089964,0,0,0,0,0
0.01,6264.6188751538,0.01,0.73501118808502,1751032,6342.5074168191,11.1944249
0.0225,5238.8031151866,0.0125,-0.14473347944425,2133004,5306.0077390376,31.9506264
0.038125,4729.2475155258,0.015625,-0.51974031606069,2303918,4791.1698620808,49.2302665
0.05765625,4428.7812248414,0.01953125,-0.81889300851424,2224626,4488.0840131076,68.0732746
0.0820703125,4221.8088996027,0.0244140625,-1.0902728340192,2191742,4280.4133473586,83.3938022
0.112587890625,4057.1982989448,0.030517578125,-1.3875492078922,2205909,4116.9636765126,95.4947711
0.15073486328125,3919.2792844555,0.03814697265625,-1.5401170764014,2209988,3982.8469158345,106.4349524
0.19841857910156,3796.9260601907,0.047683715820312,-1.7413445537047,2217796,3868.0475699489,118.6206326
0.25802322387695,3690.9320235535,0.059604644775391,-1.3450222582759,2154820,3774.1303121422,128.7647481
0.33252902984619,3600.9132331829,0.074505805969238,-1.343836498116,2169754,3699.6584160457,138.659241
0.42566128730774,3529.259875754,0.093132257461548,-0.98037563250816,2178334,3643.620851575,148.6517577
0.54207660913467,3471.8608514111,0.11641532182693,-1.1390418582777,2185417,3598.3527139023,157.7767812
0.68759576141834,3422.3870124187,0.14551915228367,-1.2763643147822,2190910,3557.3052195149,165.9209692
0.86949470177293,3376.2716089723,0.18189894035459,-1.3553444078019,2196952,3517.8092704274,173.2172891
1.0968683772162,3326.9083975066,0.22737367544323,-1.4576552191274,2203504,3474.7240105935,181.0157277
1.3810854715202,3269.6346327573,0.28421709430404,-0.77758563892389,2207847,3424.4015080215,187.9063631
1.7363568394003,3202.7608972112,0.35527136788005,-0.18136271961332,2151330,3367.3716146732,194.2970544
2.0694237467878,3147.4371687403,0.33306690738755,-0.017080263794726,2154233,3319.5172439267,227.0397292
2.4024906541753,3089.280002842,0.33306690738755,0.28349973481967,2156781,3267.5902691222,232.4194686
2.8188242884098,3017.8286857808,0.41633363423443,0.91606309978386,2167714,3206.24607032,240.0319415
3.2351579226442,2946.8760751889,0.41633363423443,1.3826850444676,2170339,3144.7122105221,248.4781526
3.6514915568786,2878.0597715736,0.41633363423443,1.1455623191141,2174607,3084.2890841672,255.603103
4.0678251911131,2808.5679726362,0.41633363423443,0.77560464222315,2179327,3023.075694012,263.0620802
4.5882422339061,2726.8744918608,0.52041704279304,0.73735924287703,2183050,2950.9851875718,269.3053793
5.2387635373974,2627.2509249826,0.6505213034913,1.1591236796058,2188846,2862.4162231657,278.0852221
5.8892848408887,2532.0217174392,0.6505213034913,0.60520654526135,2195269,2776.6063762024,288.8077098
6.53980614438,2438.4370894078,0.6505213034913,-0.036989724163105,2140160,2692.569316731,297.1208668
7.3529577737442,2330.3556651745,0.81315162936413,-0.22983104977626,2146005,2595.3211001021,305.8058239
8.1661094031083,2226.3298965721,0.81315162936413,-0.45331022518865,2147659,2501.5253643301,315.9385718
8.9792610324724,2129.7609579456,0.81315162936413,-0.33992132280502,2151985,2414.284962061,324.6835337
9.7924126618365,2035.8844668103,0.81315162936413,-0.4640031700105,2153247,2329.2555172815,334.4093005
10.605564291201,1948.6794135949,0.81315162936413,-0.40143259357885,2159629,2250.123645499,343.8359396
11.418715920565,1863.3924393882,0.81315162936413,-0.41517972279791,2165356,2172.4719915171,353.3010661
12.43515545727,1765.5854609798,1.0164395367052,-0.31711631062301,2167662,2083.3001618568,364.2647628
13.451594993975,1671.6523504495,1.0164395367052,-0.40326174234626,2175526,1997.3930853379,376.6754473
14.46803453068,1585.7086843853,1.0164395367052,-0.22336521659845,2177774,1918.8436757333,388.1542394
15.484474067385,1503.4681763241,1.0164395367052,-0.29666299736319,2180031,1843.586096451,399.0792563
16.500913604091,1428.9432526959,1.0164395367052,-0.14213310463833,2182767,1775.4494058519,409.7637348
17.517353140796,1358.4807798703,1.0164395367052,-0.15251110742453,2183791,1711.0347409686,421.4480152
18.533792677501,1295.1594197816,1.0164395367052,-0.099460268495862,2186213,1653.2326930491,432.1801665
19.550232214206,1235.9914770526,1.0164395367052,-0.024365970972272,2193938,1599.2903167897,442.6013684
20.820781635088,1170.7659643983,1.2705494208815,0.030905209207954,2205889,1539.9220004938,454.6070241
22.091331055969,1112.0347844175,1.2705494208815,0.16528896285456,2208515,1486.5873444264,467.6016942
23.36188047685,1060.6270552964,1.2705494208815,0.22136855741746,2209314,1439.9331620541,478.3443596
24.632429897732,1014.423518823,1.2705494208815,0.40469427369302,2210809,1398.1208064564,489.6628127
25.902979318613,973.67670832428,1.2705494208815,0.46427104971543,2214048,1361.1993787651,500.105226
27.173528739495,937.05269715208,1.2705494208815,0.65725276834206,2216006,1328.0937098656,510.7292898
28.444078160376,904.29114456907,1.2705494208815,0.75459408593226,2216006,1298.3697200289,519.6317943
30.032264936478,867.7006795188,1.5881867761018,1.0014347649312,2216006,1265.1569125587,531.9044343
30.925619998035,847.05379230668,0.89335506155727,1.1185209030787,2218529,1246.3347188129,638.9187469
31.428132220161,835.83060419177,0.50251222212596,1.2231327376612,2222253,1235.8573936302,734.1632511
31.930644442287,825.13242531257,0.50251222212596,1.2901850430596,2234000,1224.6955010964,744.4646801
32.433156664413,813.65065692104,0.50251222212596,1.3398050110772,2235572,1213.260840784,753.7003408
32.935668886539,803.39032412458,0.50251222212596,1.4320239330671,2237190,1203.1114515774,761.406576
33.563809164197,791.53757511264,0.62814027765746,1.5774159967745,2238869,1191.5203147259,768.6036593
34.348984511268,777.80397516022,0.78517534707182,1.9042107204506,2240254,1178.2020656874,775.8699907
34.901060927178,768.5688893141,0.55207641590987,2.2174570013513,2241372,1169.2204174537,913.7532044
35.315118239111,761.94153990168,0.4140573119324,2.1078355485955,2242638,1162.065450028,967.8885349
35.729175551043,754.29564227462,0.4140573119324,1.487029079727,2243068,1154.0764765414,977.1709361
36.143232862976,747.16908166802,0.4140573119324,1.1131515583129,2244072,1146.7562587784,984.9491237
36.660804502891,738.82507836663,0.51757163991551,0.93548003845291,2244072,1138.2839379868,992.8902163
37.307769052785,728.96421297458,0.64696454989438,0.76827002954657,2244515,1128.3624073632,1000.7989026
38.116474740153,717.34114151072,0.80870568736798,0.73286872814116,2244515,1116.7938058472,1009.2160238
39.127356849363,703.71599601315,1.01088210921,0.67036599697328,2251094,1103.3018339257,1018.4675028
40.138238958573,690.95760744854,1.01088210921,0.66782052757614,2251094,1090.741528381,1027.0197206
41.401841595086,676.06004167331,1.2636026365125,0.65099711710905,2251094,1076.0986997691,1036.439531
42.665444231598,662.21551158116,1.2636026365125,0.65946587290311,2252015,1062.5060673425,1045.6296771
43.929046868111,649.28340412697,1.2636026365125,0.67349580852659,2252015,1049.7994909852,1054.0776893
45.508550163751,634.27267766455,1.5795032956406,0.67631592388192,2252015,1035.0360889016,1063.509291
47.088053459392,620.41065762169,1.5795032956406,0.714788611898,2252015,1021.3503125057,1072.6740043
48.667556755032,607.56836729203,1.5795032956406,0.74342044332898,2252793,1008.6371341794,1082.1605481
50.247060050673,595.63610673489,1.5795032956406,0.77002477152672,2252793,996.75757377585,1090.7655478
52.221439170224,581.87984439595,1.9743791195507,0.84002631185663,2254329,982.99503044323,1100.9455483
54.195818289775,569.24696698742,1.9743791195507,0.88043246236536,2254329,970.26034196932,1110.6054328
56.170197409325,557.64108346876,1.9743791195507,0.99501306387747,2254329,958.44759876326,1120.2443626
58.144576528876,546.92099913049,1.9743791195507,1.0703718419454,2254329,947.43444330324,1129.9600366
60.118955648427,537.01000325268,1.9743791195507,1.1749083524661,2254329,937.11358369062,1139.4764591
62.093334767977,527.80912490199,1.9743791195507,1.2797241608893,2255779,927.38846097598,1148.42441
64.067713887528,519.26933294941,1.9743791195507,1.4826285431524,2257462,918.15492653525,1157.1908381
66.042093007079,511.30365844296,1.9743791195507,1.673689837454,2257462,909.21688039225,1167.0277037
67.522877346742,505.73197958827,1.480784339663,1.9793076267092,2259121,902.46663866463,1208.2778579
68.147583240037,502.95548668258,0.62470589329535,2.2108093676136,2259121,898.72370566294,1315.6413615
68.616112660009,500.73871743968,0.46852941997151,1.5725043839011,2262054,894.57711055086,1348.4806911
69.08464207998,496.97758670804,0.46852941997151,1.4680509472508,2262504,887.82805534538,1362.2653889
69.553171499952,493.10566333054,0.46852941997151,1.3852656737321,2262504,883.11088027444,1370.5865502
70.138833274916,489.68002666243,0.58566177496439,1.2165795073008,2262504,878.99203627113,1378.7254826
70.870910493622,485.9555978778,0.73207721870548,1.045091438628,2264056,874.55054242504,1386.8526729
71.786007017004,481.76754110055,0.91509652338186,0.96008723386942,2264056,869.60111885887,1394.9853555
72.929877671231,477.037714016,1.1438706542273,0.84097277967212,2264056,864.05008948837,1404.4307904
74.073748325458,472.71754072863,1.1438706542273,0.82200863717162,2264056,858.99018523987,1413.6460797
75.217618979686,468.73529306717,1.1438706542273,0.73900081360841,2264056,854.31884329877,1421.9129865
76.64745729747,464.13430793634,1.4298383177842,0.69750780232573,2264056,848.94028556626,1431.0763939
78.077295615254,459.90243406435,1.4298383177842,0.65376659297474,2264056,843.98360358823,1440.1914146
79.507133933038,455.97382683824,1.4298383177842,0.60567952560524,2265063,839.37605596576,1448.6430093
81.294431830268,451.43494147181,1.7872978972302,0.57000103259275,2265063,834.04565509537,1457.9413994
83.081729727498,447.2592414718,1.7872978972302,0.51398051990474,2265063,829.12015404854,1467.2044305
84.869027624729,443.39978433372,1.7872978972302,0.47752082593678,2265063,824.54284782105,1475.4615028
86.656325521959,439.81874464058,1.7872978972302,0.44879899952109,2265063,820.2783122561,1483.361945
88.890447893496,435.69620221711,2.2341223715377,0.41990732616273,2265063,815.32419061799,1492.653273
91.124570265034,431.9124810766,2.2341223715377,0.38433212541225,2265063,810.75420837035,1501.9740822
93.358692636572,428.45015221444,2.2341223715377,0.36047091519352,2249384,806.51928737333,1510.9753324
95.59281500811,425.26541901808,2.2341223715377,0.33360181154124,2255614,802.5926800513,1519.0022362
98.385467972532,421.63580890078,2.7926529644222,0.31593828217019,2259964,798.06919186457,1528.3307228
101.17812093695,418.36007041458,2.7926529644222,0.28375562099376,2259964,793.92716227994,1537.8395865
103.97077390138,415.39540146099,2.7926529644222,0.2718591365728,2259964,790.13093674136,1546.3857761
106.7634268658,412.71135651206,2.7926529644222,0.24574678200759,2259964,786.63241004708,1554.7104142
109.55607983022,410.27213726641,2.7926529644222,0.23181490300792,2260308,783.41717612246,1563.3311518
112.34873279464,408.05399519334,2.7926529644222,0.20957389103372,2260308,780.44581166342,1570.4190398
115.83954900017,405.55832452295,3.4908162055277,0.19194862017199,2260308,777.0489660835,1579.0142337
119.3303652057,403.33130899008,3.4908162055277,0.17588496885197,2260308,773.96031569941,1587.8412419
122.82118141123,401.34123100724,3.4908162055277,0.15644259783519,2260308,771.14322410014,1596.570374
126.31199761675,399.55275008468,3.4908162055277,0.14266116302386,2260308,768.57506869817,1605.1656825
129.80281382228,397.9460516326,3.4908162055277,0.12815750923346,2260308,766.22346727261,1613.9077514
133.29363002781,396.49365066484,3.4908162055277,0.11518655112752,2260308,764.06951075477,1622.5171846
136.78444623334,395.18494321492,3.4908162055277,0.10231028635168,2260308,762.08801725339,1630.020709
140.27526243886,393.98963680072,3.4908162055277,0.088792399055594,2261234,760.27013848,1637.5044842
144.63878269577,392.66126711808,4.3635202569096,0.073047885907417,2261234,758.1921365252,1647.0052758
149.00230295268,391.46457266095,4.3635202569096,0.059442269729097,2261234,756.31749559358,1655.87781
153.36582320959,390.41879073365,4.3635202569096,0.040366477363434,2261234,754.61467846341,1664.3651883
157.7293434665,389.46383000138,4.3635202569096,0.027922425315477,2261234,753.06796287432,1671.87751
162.09286372341,388.6104138721,4.3635202569096,0.015943332696898,2261234,751.64740168904,1679.1782893
166.45638398032,387.83680657322,4.3635202569096,-0.0033431544323097,2261234,750.34791186316,1686.5193293
170.81990423723,387.13647640221,4.3635202569096,-0.0081917241882065,2261234,749.14364523582,1693.8582598
175.18342449414,386.48522550084,4.3635202569096,-0.026509643115601,2264530,748.0228363824,1701.0745911
179.54694475105,385.89772661056,4.3635202569096,-0.031924867660029,2264530,746.97514048136,1708.2658979
183.91046500796,385.34910302659,4.3635202569096,-0.050863559207584,2264530,745.98279460379,1715.4554691
188.27398526487,384.83510503583,4.3635202569096,-0.053263341022367,2264530,745.04022380774,1722.7282133
192.63750552178,384.33738623031,4.3635202569096,-0.072844501079677,2264530,744.13246547593,1729.7341398
197.00102577869,383.85936284916,4.3635202569096,-0.072251619163039,2264984,743.2476619269,1736.8119345
201.3645460356,383.4022628694,4.3635202569096,-0.095148141834848,2265779,742.38198450882,1743.8507512
205.72806629251,382.95913572182,4.3635202569096,-0.089957979102472,2265779,741.52869102927,1751.0808249
210.09158654942,382.52090504223,4.3635202569096,-0.10892196735366,2266770,740.67976257239,1758.413598
214.45510680633,382.08879733087,4.3635202569096,-0.1032295543622,2266770,739.82751754302,1765.5037556
218.81862706324,381.64951846306,4.3635202569096,-0.12291137086253,2266770,738.97172783867,1772.5722674
223.18214732015,381.21599932742,4.3635202569096,-0.11716508790387,2266770,738.10056618688,1779.7800884
227.54566757706,380.77134365358,4.3635202569096,-0.13519374770841,2266770,737.21566639371,1787.0080551
231.90918783397,380.32757672786,4.3635202569096,-0.12907019942902,2266770,736.30610287486,1794.1163318
236.27270809088,379.86067679242,4.3635202569096,-0.14547266032952,2266770,735.36578645084,1801.3109863
240.63622834779,379.38677702844,4.3635202569096,-0.13980670624088,2266770,734.39076545191,1808.370605
244.9997486047,378.89196970075,4.3635202569096,-0.15444355253139,2266770,733.37138900775,1815.5396461
249.36326886161,378.38484464942,4.3635202569096,-0.1491028806243,2266770,732.30538543605,1822.6757635
253.72678911851,377.84306547505,4.3635202569096,-0.16315700577938,2266770,731.17769235802,1829.814822
258.09030937542,377.2807630077,4.3635202569096,-0.15641244880764,2266770,729.98447656271,1836.8243849
262.45382963233,376.67436165081,4.3635202569096,-0.16896703180005,2266770,728.70468357647,1843.8629306
266.81734988924,376.03101175542,4.3635202569096,-0.16155254619598,2266770,727.32323442114,1851.0483558
271.18087014615,375.34085569036,4.3635202569096,-0.17678509316808,2266770,725.82502215011,1859.3127565
275.54439040306,374.57855986495,4.3635202569096,-0.16629726130869,2266770,724.17542850726,1867.8396046
279.90791065997,373.74611920416,4.3635202569096,-0.17942771782476,2266770,722.33030202446,1876.6789645
284.27143091688,372.8061623403,4.3635202569096,-0.1711935761097,2266770,720.22095469838,1885.987726
287.54407110956,372.01453342915,3.2726401926822,-0.17957564820141,2266770,718.39392923094,1894.5244808
290.81671130225,371.11442507607,3.2726401926822,-0.17455821758308,2261625,716.25959584883,1903.6299477
294.08935149493,370.07344505444,3.2726401926822,-0.17727375688851,2262859,713.63251741427,1914.0458163
296.54383163944,369.13021520838,2.4544801445117,-0.17733101337182,2262859,711.08603231602,1923.6485239
298.99831178395,368.02378339002,2.4544801445117,-0.18014151492685,2262859,707.17719780884,1938.5922977
299.77492464218,367.23763524005,0.7766128582244,-0.17877175274002,2262859,704.40801742128,2046.6874064
300.10255819174,366.91783361488,0.32763354956342,-0.17620896376905,2228404,702.30296651309,2167.1212525
300.4301917413,364.99540016186,0.32763354956342,-0.17794724722477,2228404,697.1849115589,2178.5187571
300.75782529087,362.77903155859,0.32763354956342,-0.18107797191384,2230038,694.56333344393,2185.1474969
301.16736722782,361.66419343058,0.40954193695427,-0.17968581328305,2230038,693.45857757643,2191.5490311
301.67929464901,360.69498657895,0.51192742119284,-0.18095011827562,2230038,692.53287300939,2196.7363959
302.3192039255,359.80187769631,0.63990927649105,-0.17901614589648,2230038,691.72701026375,2202.1226916
303.11909052112,358.91778630043,0.79988659561381,-0.17786756874182,2230038,690.93787766598,2207.6320509
304.11894876564,358.10881283562,0.99985824451726,-0.17984291188374,2230038,690.26338129303,2213.1263475
305.36877157128,357.36049011797,1.2498228056466,-0.17934253959675,2230038,689.62141934969,2218.4652198
306.93105007834,356.68274880816,1.5622785070582,-0.18090506841903,2230038,689.058792904,2224.1386006
308.88389821216,356.10563869662,1.9528481338228,-0.18113647387039,2230038,688.50752751017,2230.2705759
311.32495837944,355.61917399409,2.4410601672785,-0.18660814380091,2230038,687.9917004733,2236.6103759
313.61345228627,355.45446243187,2.2884939068236,-0.18570319950837,2230038,687.54275904754,2276.0514321
314.33754606147,355.48727643976,0.7240937752059,-0.18911207154093,2230038,687.32688615165,2438.5518604
314.74484881002,355.66185633638,0.40730274855332,-0.18920664555179,2230038,687.08459570984,2519.3659302
315.15215155858,355.00538948058,0.40730274855332,-0.19242829945918,2230038,685.1822583482,2526.3021869
315.55945430713,352.9385844884,0.40730274855332,-0.18722372407936,2230038,682.21898023669,2533.5837691
315.96675705568,351.55591419327,0.40730274855332,-0.18817694685662,2230038,680.10134072614,2540.2771379
316.47588549138,350.29922273375,0.50912843569165,-0.18858788173676,2230038,678.02312258259,2546.7674296
317.11229603599,349.08993595542,0.63641054461456,-0.18978681299734,2230038,675.99273923543,2553.1708105
317.90780921676,347.8581186836,0.7955131807682,-0.19027605697506,2230038,673.90590265929,2559.1359554
318.90220069272,346.59707106707,0.99439147596025,-0.1914977305565,2230038,671.82047670046,2565.9450681
320.14519003767,345.31043904725,1.2429893449503,-0.1919781756063,2230038,669.66444513945,2572.7935674
321.69892671886,343.98300975797,1.5537366811879,-0.1932420644969,2230038,667.49839036673,2579.8907243
323.64109757034,342.6501870102,1.9421708514849,-0.19317475653298,2230038,665.27191846402,2587.0165404
325.58326842183,341.54763914677,1.9421708514849,-0.19435573920937,2230038,663.44178670996,2594.1192087
328.01098198618,340.40926136815,2.4277135643561,-0.1935314081407,2230038,661.49796406077,2601.0631126
330.43869555054,339.44299439801,2.4277135643561,-0.19607321659522,2230038,659.85920025587,2608.3638592
332.8664091149,338.62521105016,2.4277135643561,-0.19369493833964,2230038,658.41398723473,2614.593572
335.90105107034,337.72206387715,3.0346419554451,-0.19696513563585,2230038,656.84304509793,2621.8762089
338.93569302579,336.94805243717,3.0346419554451,-0.19560877173368,2230038,655.44170197611,2628.1926825
342.72899547009,336.08474954257,3.7933024443064,-0.19696408578138,2230038,653.89322175447,2635.5136318
346.5222979144,335.33462812985,3.7933024443064,-0.19752422208078,2230038,652.49496934086,2641.6479348
350.3156003587,334.64274937881,3.7933024443064,-0.20159936843885,2230038,651.22239228578,2647.8453637
354.10890280301,334.0267605419,3.7933024443064,-0.20262043538884,2230038,650.03249337917,2654.032776
357.90220524732,333.43510132811,3.7933024443064,-0.20718917588453,2230038,648.92701433882,2660.34296
361.69550769162,332.89852373771,3.7933024443064,-0.20861222812955,2230038,647.86995593975,2666.6054419
366.43713574701,332.24546016241,4.7416280553829,-0.21402572209139,2230038,646.633630844,2674.5492477
371.17876380239,331.64824927422,4.7416280553829,-0.21494599886961,2230038,645.45653962773,2681.2265154
375.92039185777,331.05808207919,4.7416280553829,-0.22193737376832,2230038,644.34965108958,2689.0366615
380.66201991316,330.51728630724,4.7416280553829,-0.2210907547605,2230038,643.28000849943,2695.5001929
